  Time  Potential_Energy  Kinetic_Energy  Total_Energy  Temperature  Moment of Cen Pressure 
  1.00000005E-03  -8.3390913       4.5936704      -3.7454209       3.0631025      1.50913083E-05  -1.4820788    
  2.00000009E-03  -8.3311758       4.5887060      -3.7424698       3.0624468      1.07692003E-05  -1.4353878    
  3.00000003E-03  -8.3152113       4.5797048      -3.7355065       3.0591373      3.76454182E-06  -1.3450360    
  4.00000019E-03  -8.2910347       4.5665588      -3.7244759       3.0531366      2.17244215E-05  -1.2098160    
  5.00000035E-03  -8.2583447       4.5490994      -3.7092452       3.0443726      2.14836509E-05  -1.0285823    
  6.00000005E-03  -8.2167234       4.5271044      -3.6896191       3.0327330      1.01555979E-05 -0.79965568    
  7.00000022E-03  -8.1656475       4.5002837      -3.6653638       3.0180695      6.94208620E-06 -0.52120638    
  8.00000038E-03  -8.1044426       4.4682941      -3.6361485       3.0001891      1.35961645E-05 -0.19103861    
  9.00000054E-03  -8.0323553       4.4307213      -3.6016340       2.9788628      1.58157145E-05  0.19362640    
  1.00000007E-02  -7.9485130       4.3871045      -3.5614085       2.9538143      8.88774048E-06  0.63608098    
  1.10000009E-02  -7.8519406       4.3369412      -3.5149994       2.9247363      8.92005937E-06   1.1395843    
  1.20000001E-02  -7.7416034       4.2796941      -3.4619093       2.8912942      4.17763622E-05   1.7073230    
  1.30000003E-02  -7.6164794       4.2148042      -3.4016752       2.8531294      2.32865059E-05   2.3430717    
  1.40000004E-02  -7.4755611       4.1417637      -3.3337975       2.8098695      1.44069800E-05   3.0501530    
  1.50000006E-02  -7.3180108       4.0601263      -3.2578845       2.7611759      1.18785347E-05   3.8308115    
  1.60000008E-02  -7.1432881       3.9696057      -3.1736825       2.7067509      1.87472724E-05   4.6861191    
  1.70000009E-02  -6.9512982       3.8701460      -3.0811522       2.6464038      2.44408839E-05   5.6147413    
  1.80000011E-02  -6.7426105       3.7620401      -2.9805703       2.5800974      9.46532236E-06   6.6130738    
  1.90000013E-02  -6.5186310       3.6460037      -2.8726273       2.5080268      1.04391538E-05   7.6739297    
  2.00000014E-02  -6.3274927       1.4230362      -4.9044566       2.4306691      7.83438372E-06   8.5578938    
  2.10000016E-02  -6.1826439       1.3480240      -4.8346200      0.94869083      1.05630734E-05   7.8039165    
  2.20000017E-02  -6.0445313       1.2763339      -4.7681975      0.89868265      5.41197369E-06   8.4490891    
  2.30000019E-02  -5.9155951       1.2091980      -4.7063971      0.85088927      1.25559509E-05   9.0526743    
  2.40000002E-02  -5.7978382       1.1476228      -4.6502151      0.80613202      6.62605908E-06   9.6058350    
  2.50000004E-02  -5.6927295       1.0923508      -4.6003785      0.76508188      9.41814687E-06   10.102946    
  2.60000005E-02  -5.6011972       1.0438493      -4.5573478      0.72823387      3.93957498E-06   10.539800    
  2.70000007E-02  -5.5236440       1.0023342      -4.5213099      0.69589955      1.00066600E-05   10.914560    
  2.80000009E-02  -5.4600482      0.96780026      -4.4922481      0.66822284      1.05464123E-05   11.227383    
  2.90000010E-02  -5.4100056      0.94006246      -4.4699430      0.64520019      1.07391379E-05   11.479576    
  3.00000012E-02  -5.3728509      0.91879106      -4.4540596      0.62670833      4.93559764E-06   11.674021    
  3.10000014E-02  -5.3476939      0.90355539      -4.4441385      0.61252737      1.08714185E-05   11.814431    
  3.20000015E-02  -5.3335114      0.89383811      -4.4396734      0.60237026      3.59502860E-06   11.904904    
  3.29999998E-02  -5.3291435      0.88908201      -4.4400616      0.59589207      1.10941146E-05   11.950282    
  3.40000018E-02  -5.3334241      0.88869697      -4.4447269      0.59272134      7.76981233E-06   11.955723    
  3.50000001E-02  -5.3451414      0.89208674      -4.4530544      0.59246463      1.09217508E-05   11.926172    
  3.60000022E-02  -5.3631244      0.89866686      -4.4644575      0.59472448      5.55149563E-06   11.866714    
  3.70000005E-02  -5.3862314      0.90787113      -4.4783602      0.59911126      3.26374675E-06   11.782274    
  3.80000025E-02  -5.4134150      0.91916913      -4.4942460      0.60524744      3.39710573E-06   11.677467    
  3.90000008E-02  -5.4436650      0.93206888      -4.5115962      0.61277944      6.22905964E-06   11.556559    
  4.00000028E-02  -5.4789433       1.5168898      -3.9620535      0.62137926      1.27921085E-05   11.411991    
  4.10000011E-02  -5.5151191       1.5323639      -3.9827552       1.0112599      8.42091322E-06   11.643038    
  4.20000032E-02  -5.5477624       1.5461701      -4.0015922       1.0215759      1.14696577E-05   11.508621    
  4.30000015E-02  -5.5765185       1.5581284      -4.0183902       1.0307801      1.10742803E-05   11.388966    
  4.40000035E-02  -5.6011629       1.5681136      -4.0330496       1.0387522      7.83710402E-06   11.285233    
  4.50000018E-02  -5.6215887       1.5760566      -4.0455322       1.0454091      3.70988050E-06   11.198270    
  4.60000038E-02  -5.6377659       1.5819403      -4.0558257       1.0507044      1.11880736E-05   11.128479    
  4.70000021E-02  -5.6497645       1.5857857      -4.0639787       1.0546268      1.00111411E-05   11.075694    
  4.80000004E-02  -5.6577091       1.5876555      -4.0700536       1.0571905      9.27652036E-06   11.039694    
  4.90000024E-02  -5.6618257       1.5876398      -4.0741858       1.0584370      4.20479500E-06   11.019721    
  5.00000007E-02  -5.6623516       1.5858651      -4.0764866       1.0584265      7.33877278E-06   11.014851    
  5.10000028E-02  -5.6596165       1.5824801      -4.0771365       1.0572435      8.58939165E-06   11.023914    
  5.20000011E-02  -5.6539531       1.5776528      -4.0763001       1.0549867      9.79904053E-06   11.045465    
  5.30000031E-02  -5.6457410       1.5715657      -4.0741754       1.0517685      6.26565043E-06   11.078162    
  5.40000014E-02  -5.6353812       1.5644168      -4.0709643       1.0477105      5.26042641E-06   11.120298    
  5.50000034E-02  -5.6232815       1.5564003      -4.0668812       1.0429446      5.88375133E-06   11.170160    
  5.60000017E-02  -5.6098366       1.5477166      -4.0621200       1.0376002      1.21678177E-05   11.226282    
  5.70000038E-02  -5.5954213       1.5385482      -4.0568733       1.0318111      6.55820395E-06   11.287025    
  5.80000021E-02  -5.5803852       1.5290698      -4.0513153       1.0256988      4.46199601E-06   11.351089    
  5.90000041E-02  -5.5650482       1.5194305      -4.0456176       1.0193799      1.26155028E-05   11.416882    
  6.00000024E-02  -5.5497460       1.4904144      -4.0593319       1.0129536      1.44005671E-05   11.483140    
  6.10000044E-02  -5.5347586       1.4809539      -4.0538044      0.99360961      1.18041653E-05   11.535686    
  6.20000027E-02  -5.5201845       1.4716928      -4.0484915      0.98730260      2.94063011E-06   11.599940    
  6.30000010E-02  -5.5061274       1.4626869      -4.0434403      0.98112851      1.32787654E-05   11.662660    
  6.40000030E-02  -5.4926491       1.4539572      -4.0386920      0.97512460      8.01239185E-06   11.723289    
  6.50000051E-02  -5.4797535       1.4455153      -4.0342383      0.96930480      1.10912697E-05   11.782050    
  6.59999996E-02  -5.4674187       1.4373479      -4.0300708      0.96367687      7.32046010E-06   11.838821    
  6.70000017E-02  -5.4556041       1.4294364      -4.0261679      0.95823193      3.63795903E-06   11.893667    
  6.80000037E-02  -5.4442453       1.4217485      -4.0224967      0.95295763      1.71902320E-05   11.946940    
  6.90000057E-02  -5.4332848       1.4142522      -4.0190325      0.94783235      1.22720812E-05   11.998786    
  7.00000003E-02  -5.4226317       1.4069132      -4.0157185      0.94283479      8.89972398E-06   12.049370    
  7.10000023E-02  -5.4122248       1.3996934      -4.0125313      0.93794209      8.56841416E-06   12.099107    
  7.20000044E-02  -5.4020262       1.3925697      -4.0094566      0.93312889      1.08390350E-05   12.147970    
  7.30000064E-02  -5.3919568       1.3855177      -4.0064392      0.92837977      8.27050735E-06   12.196197    
  7.40000010E-02  -5.3820271       1.3785279      -4.0034990      0.92367846      1.40162510E-05   12.243729    
  7.50000030E-02  -5.3722148       1.3715996      -4.0006151      0.91901857      1.29376413E-05   12.290552    
  7.60000050E-02  -5.3625622       1.3647486      -3.9978137      0.91439968      1.20512350E-05   12.336584    
  7.70000070E-02  -5.3531036       1.3579978      -3.9951057      0.90983242      1.88971171E-05   12.381437    
  7.80000016E-02  -5.3439312       1.3513877      -3.9925435      0.90533185      7.83092491E-06   12.424697    
  7.90000036E-02  -5.3351464       1.3449674      -3.9901791      0.90092516      7.42693965E-06   12.466089    
  8.00000057E-02  -5.3263378       1.4933082      -3.8330297      0.89664489      6.53785810E-06   12.507442    
  8.10000002E-02  -5.3169751       1.4864869      -3.8304882      0.99553877      1.48328163E-05   12.654341    
  8.20000023E-02  -5.3075337       1.4796224      -3.8279114      0.99099129      1.08264503E-05   12.697842    
  8.30000043E-02  -5.2982035       1.4728142      -3.8253894      0.98641491      1.03637121E-05   12.740549    
  8.40000063E-02  -5.2892146       1.4661705      -3.8230441      0.98187613      1.07243650E-05   12.781489    
  8.50000009E-02  -5.2807856       1.4598048      -3.8209808      0.97744703      6.32237834E-06   12.819715    
  8.60000029E-02  -5.2731438       1.4538316      -3.8193121      0.97320318      9.20833918E-06   12.854069    
  8.70000049E-02  -5.2665172       1.4483615      -3.8181558      0.96922106      1.05448435E-05   12.883817    
  8.80000070E-02  -5.2611084       1.4434990      -3.8176093      0.96557432      7.52182495E-06   12.907848    
  8.90000015E-02  -5.2571101       1.4393348      -3.8177752      0.96233267      1.11199406E-05   12.925529    
  9.00000036E-02  -5.2546549       1.4359467      -3.8187082      0.95955652      1.02811100E-05   12.936324    
  9.10000056E-02  -5.2538638       1.4333878      -3.8204761      0.95729780      1.18284815E-05   12.939670    
  9.20000076E-02  -5.2548027       1.4316938      -3.8231089      0.95559186      9.57022348E-06   12.935289    
  9.30000022E-02  -5.2575006       1.4308759      -3.8266249      0.95446253      1.34340144E-05   12.923210    
  9.40000042E-02  -5.2619314       1.4309304      -3.8310010      0.95391726      7.57377802E-06   12.903368    
  9.50000063E-02  -5.2680540       1.4318347      -3.8362193      0.95395356      8.28938664E-06   12.876008    
  9.60000008E-02  -5.2757778       1.4335455      -3.8422322      0.95455647      5.05202115E-06   12.841494    
  9.70000029E-02  -5.2849941       1.4360076      -3.8489866      0.95569700      9.61262322E-06   12.800467    
  9.80000049E-02  -5.2955499       1.4391497      -3.8564000      0.95733839      1.37434354E-05   12.753489    
  9.90000069E-02  -5.3072701       1.4428823      -3.8643878      0.95943314      8.33661034E-06   12.701426    
  0.10000000      -5.3199582       1.5042371      -3.8157210      0.96192151      7.26938470E-06   12.644949    
  0.10100000      -5.3331332       1.5086856      -3.8244476       1.0028247      4.20669585E-06   12.624578    
  0.10200001      -5.3464465       1.5132104      -3.8332362       1.0057904      1.07319838E-05   12.565340    
  0.10300001      -5.3596182       1.5176789      -3.8419394       1.0088069      1.20274435E-05   12.506781    
  0.10400000      -5.3723812       1.5219541      -3.8504272       1.0117859      1.29811806E-05   12.449944    
  0.10500000      -5.3844738       1.5259078      -3.8585660       1.0146360      7.10490485E-06   12.395825    
  0.10600001      -5.3956480       1.5294158      -3.8662322       1.0172719      1.18936377E-05   12.345539    
  0.10700001      -5.4057002       1.5323724      -3.8733277       1.0196105      8.33139165E-06   12.300087    
  0.10800000      -5.4144378       1.5346855      -3.8797522       1.0215815      1.21260136E-05   12.260183    
  0.10900000      -5.4217181       1.5362778      -3.8854403       1.0231236      1.40924203E-05   12.226409    
  0.11000001      -5.4274230       1.5370989      -3.8903241       1.0241852      1.26484911E-05   12.199302    
  0.11100001      -5.4315076       1.5371104      -3.8943973       1.0247326      7.54858684E-06   12.179101    
  0.11200000      -5.4339299       1.5363024      -3.8976274       1.0247403      8.26025007E-06   12.165871    
  0.11300001      -5.4347148       1.5346793      -3.9000354       1.0242016      5.89134697E-06   12.159586    
  0.11400001      -5.4339085       1.5322657      -3.9016428       1.0231196      1.13686019E-05   12.160010    
  0.11500000      -5.4316049       1.5291089      -3.9024959       1.0215105      1.16912706E-05   12.166815    
  0.11600000      -5.4279256       1.5252678      -3.9026577       1.0194060      8.98618509E-06   12.179451    
  0.11700001      -5.4230309       1.5208191      -3.9022117       1.0168452      1.33201265E-05   12.197177    
  0.11800001      -5.4170995       1.5158528      -3.9012465       1.0138794      1.08806380E-05   12.219234    
  0.11900000      -5.4103084       1.5104606      -3.8998477       1.0105685      1.22668234E-05   12.244909    
  0.12000000      -5.4029117       1.4943137      -3.9085979       1.0069737      1.74770994E-05   12.273203    
  0.12100001      -5.3951421       1.4884334      -3.9067087      0.99620914      5.52654319E-06   12.296001    
  0.12200001      -5.3871727       1.4824499      -3.9047227      0.99228889      5.56785244E-06   12.326642    
  0.12300000      -5.3791852       1.4764566      -3.9027286      0.98829991      1.30200424E-05   12.357284    
  0.12400001      -5.3713474       1.4705305      -3.9008169      0.98430443      1.09188231E-05   12.387373    
  0.12500000      -5.3637934       1.4647431      -3.8990502      0.98035365      7.71576561E-06   12.416183    
  0.12600000      -5.3566456       1.4591576      -3.8974881      0.97649544      2.77865706E-06   12.443193    
  0.12700000      -5.3500276       1.4538302      -3.8961973      0.97277170      7.49789069E-06   12.467928    
  0.12800001      -5.3440328       1.4488106      -3.8952222      0.96922016      1.07320457E-05   12.490058    
  0.12900001      -5.3387508       1.4441441      -3.8946066      0.96587372      5.28584042E-06   12.509176    
  0.13000001      -5.3342562       1.4398723      -3.8943839      0.96276277      1.26001651E-05   12.524836    
  0.13100001      -5.3306184       1.4360284      -3.8945899      0.95991486      1.18377138E-05   12.537014    
  0.13200000      -5.3278866       1.4326323      -3.8952541      0.95735222      7.83234282E-06   12.545255    
  0.13300000      -5.3260765       1.4296968      -3.8963797      0.95508820      1.12293083E-05   12.549697    
  0.13400000      -5.3251686       1.4272134      -3.8979552      0.95313120      3.06848165E-06   12.550420    
  0.13500001      -5.3251195       1.4251648      -3.8999548      0.95147562      9.65365507E-06   12.547593    
  0.13600001      -5.3258767       1.4235166      -3.9023600      0.95010990      1.19352071E-05   12.541354    
  0.13700001      -5.3273458       1.4222302      -3.9051156      0.94901109      6.03305671E-06   12.532148    
  0.13800001      -5.3294363       1.4212601      -3.9081762      0.94815350      8.89073726E-06   12.520380    
  0.13900001      -5.3320761       1.4205668      -3.9115093      0.94750673      6.49581261E-06   12.506410    
  0.14000000      -5.3350911       1.4994502      -3.8356409      0.94704455      3.64953735E-06   12.490735    
  0.14100000      -5.3380871       1.4989004      -3.8391867      0.99963349      7.18526508E-06   12.528317    
  0.14200000      -5.3410392       1.4983289      -3.8427103      0.99926692      9.68167296E-06   12.513249    
  0.14300001      -5.3439155       1.4977295      -3.8461859      0.99888593      9.21176252E-06   12.498574    
  0.14400001      -5.3467140       1.4971017      -3.8496122      0.99848634      6.37881112E-06   12.484358    
  0.14500001      -5.3494487       1.4964440      -3.8530047      0.99806780      1.03513212E-05   12.470371    
  0.14600001      -5.3521190       1.4957681      -3.8563509      0.99762934      6.73004797E-06   12.456736    
  0.14700000      -5.3547578       1.4950769      -3.8596809      0.99717873      8.39812310E-06   12.443314    
  0.14800000      -5.3573918       1.4943886      -3.8630033      0.99671793      1.02042386E-05   12.429966    
  0.14900000      -5.3600535       1.4937190      -3.8663344      0.99625903      1.15939847E-05   12.416418    
  0.15000001      -5.3627872       1.4930943      -3.8696928      0.99581265      1.14955092E-05   12.402641    
  0.15100001      -5.3656592       1.4925398      -3.8731194      0.99539620      6.27096369E-06   12.388321    
  0.15200001      -5.3687201       1.4920856      -3.8766346      0.99502653      1.00369689E-05   12.373291    
  0.15300001      -5.3720341       1.4917648      -3.8802693      0.99472374      4.51266624E-06   12.357199    
  0.15400001      -5.3756671       1.4916033      -3.8840637      0.99450988      5.70494603E-06   12.339860    
  0.15500000      -5.3796501       1.4916191      -3.8880310      0.99440217      8.92802200E-06   12.321060    
  0.15600000      -5.3840113       1.4918243      -3.8921871      0.99441272      1.24767485E-05   12.300839    
  0.15700001      -5.3887362       1.4922193      -3.8965168      0.99454951      1.00095440E-05   12.279139    
  0.15800001      -5.3938107       1.4927832      -3.9010277      0.99481291      6.72853002E-06   12.256152    
  0.15900001      -5.3991423       1.4934821      -3.9056602      0.99518877      2.09708051E-05   12.232121    
  0.16000001      -5.4046469       1.5007783      -3.9038687      0.99565476      9.58416967E-06   12.207594    
  0.16100001      -5.4101534       1.5015569      -3.9085965       1.0005189      1.21725816E-05   12.187587    
  0.16200000      -5.4155030       1.5022577      -3.9132452       1.0010380      1.25772885E-05   12.163921    
  0.16300000      -5.4205251       1.5027906      -3.9177346       1.0015051      5.61647266E-06   12.141802    
  0.16400000      -5.4250278       1.5030643      -3.9219637       1.0018604      1.85020581E-05   12.121859    
  0.16500001      -5.4288483       1.5029936      -3.9258547       1.0020429      1.45747681E-05   12.104873    
  0.16600001      -5.4318361       1.5025072      -3.9293289       1.0019957      1.56374754E-05   12.091398    
  0.16700001      -5.4338779       1.5015457      -3.9323323       1.0016714      1.50945743E-05   12.081846    
  0.16800001      -5.4349036       1.5000807      -3.9348230       1.0010304      8.44769693E-06   12.076406    
  0.16900001      -5.4349065       1.4981011      -3.9368052       1.0000538      1.34427964E-05   12.075231    
  0.17000000      -5.4339185       1.4956313      -3.9382873      0.99873406      9.02137344E-06   12.078077    
  0.17100000      -5.4320245       1.4927130      -3.9393115      0.99708754      2.68862300E-06   12.084584    
  0.17200001      -5.4293637       1.4894125      -3.9399512      0.99514198      3.64497896E-06   12.094161    
  0.17300001      -5.4261055       1.4858186      -3.9402869      0.99294168      6.92806270E-06   12.106220    
  0.17400001      -5.4224396       1.4820237      -3.9404159      0.99054575      5.32238528E-06   12.119746    
  0.17500001      -5.4185667       1.4781302      -3.9404364      0.98801583      7.90885315E-06   12.134086    
  0.17600001      -5.4146872       1.4742372      -3.9404500      0.98542017      1.41096925E-05   12.148479    
